Time,Displacement,Force
(s),(mm),(N)
0,0,-0.13613
0.1,0.00696,0.05127
0.2,0.01661,-0.02967
0.3,0.02523,-0.11336
0.4,0.03332,-0.01904
0.5,0.04157,-0.0645
0.6,0.05014,0.03496
0.7,0.05855,-0.02591
0.8,0.06696,0.0763
0.9,0.07516,-0.06638
1,0.0833,-0.06908
1.1,0.09171,-0.04903
1.2,0.10023,-0.04773
1.3,0.10864,0.08317
1.4,0.117,-0.0342
1.5,0.12509,0.08217
1.6,0.13329,-0.07968
1.7,0.1418,0.0659
1.8,0.15027,0.1059
1.9,0.15863,0.07639
2,0.16682,0.36414
2.1,0.17496,0.59918
2.2,0.18338,0.69486
2.3,0.19189,1.17572
2.4,0.2003,1.40971
2.5,0.20861,1.50433
2.6,0.21664,1.70489
2.7,0.22495,1.9429
2.8,0.23352,2.0822
2.9,0.24198,2.21005
3,0.25034,2.65879
3.1,0.25848,2.88359
3.2,0.26662,2.85213
3.3,0.27509,3.07538
3.4,0.28361,3.32582
3.5,0.29196,3.65565
3.6,0.30021,3.91713
3.7,0.3083,4.04293
3.8,0.31661,4.30951
3.9,0.32518,4.49777
4,0.33364,4.59772
4.1,0.34195,4.84865
4.2,0.35009,4.8936
4.3,0.35829,5.25934
4.4,0.36675,5.56841
4.5,0.37527,5.72551
4.6,0.38368,5.99585
4.7,0.39193,6.21837
4.8,0.39996,6.6979
4.9,0.40832,6.79563
5,0.41684,7.12735
5.1,0.4253,7.20175
5.2,0.43361,7.41976
5.3,0.4417,7.32974
5.4,0.44989,7.1851
5.5,0.45846,7.22394
5.6,0.46693,7.17491
5.7,0.47534,7.17261
5.8,0.48354,7.10838
5.9,0.49162,7.40662
6,0.50004,7.01602
6.1,0.50855,7.20241
6.2,0.51696,7.0845
6.3,0.52532,6.97815
6.4,0.53336,7.149
6.5,0.54155,7.46146
6.6,0.55013,7.63945
6.7,0.55859,7.90587
6.8,0.567,7.80696
6.9,0.5752,7.89578
7,0.58329,7.83536
7.1,0.5917,8.03891
7.2,0.60021,7.77098
7.3,0.60868,8.07977
7.4,0.61698,8.03133
7.5,0.62502,8.12434
7.6,0.63332,7.86314
7.7,0.64184,8.03442
7.8,0.6503,8.15765
7.9,0.65861,8.17323
8,0.6668,8.20033
8.1,0.67489,8.21385
8.2,0.68341,8.3268
8.3,0.69187,8.26527
8.4,0.70029,8.24114
8.5,0.70859,8.45899
8.6,0.71668,8.45956
8.7,0.72498,8.65664
8.8,0.7335,8.77799
8.9,0.74196,9.05355
9,0.75032,9.32059
9.1,0.75846,9.4912
9.2,0.76661,9.74367
9.3,0.77507,9.86309
9.4,0.78354,10.35053
9.5,0.792,10.40453
9.6,0.80025,10.54577
9.7,0.80829,10.9062
9.8,0.81664,11.00126
9.9,0.82521,11.36498
10,0.83362,11.4736
10.1,0.84198,11.69274
10.2,0.85012,12.14118
10.3,0.85827,12.14072
10.4,0.86679,12.58991
10.5,0.8753,12.67869
10.6,0.88366,12.92757
10.7,0.89186,13.17694
10.8,0.89995,13.39365
10.9,0.9083,13.62478
11,0.91682,13.83098
11.1,0.92529,14.08962
11.2,0.93359,14.43171
11.3,0.94173,14.61993
11.4,0.94993,14.76719
11.5,0.95845,15.07106
11.6,0.96696,15.40134
11.7,0.97532,15.55711
11.8,0.98357,15.78603
11.9,0.99161,15.89408
12,1.00002,16.18777
12.1,1.00854,16.36249
12.2,1.01695,16.86896
12.3,1.02525,17.0225
12.4,1.03339,17.0946
12.5,1.04159,17.33919
12.6,1.05016,17.70709
12.7,1.05863,17.78303
12.8,1.06698,18.03911
12.9,1.07513,18.32493
13,1.08321,18.54106
13.1,1.09173,18.71919
13.2,1.10025,18.98978
13.3,1.10866,19.34621
13.4,1.11696,19.53113
13.5,1.125,19.72474
13.6,1.1333,20.06985
13.7,1.14182,20.2525
13.8,1.15029,20.42168
13.9,1.15864,20.69678
14,1.16684,20.97501
14.1,1.17493,21.09946
14.2,1.18334,21.3334
14.3,1.19191,21.51002
14.4,1.20032,21.78168
14.5,1.20863,22.1523
14.6,1.21666,22.29098
14.7,1.22496,22.52177
14.8,1.23354,22.93049
14.9,1.242,23.14912
15,1.25036,23.27091
15.1,1.2585,23.71639
15.2,1.26659,23.9359
15.3,1.27511,24.36057
15.4,1.28357,24.36522
15.5,1.29193,24.59907
15.6,1.30023,24.75414
15.7,1.30827,25.10594
15.8,1.31662,25.45263
15.9,1.3252,25.50935
16,1.33361,25.97548
16.1,1.34196,26.17012
16.2,1.35011,26.29132
16.3,1.3583,26.63591
16.4,1.36677,26.77305
16.5,1.37523,27.31379
16.6,1.38364,27.23129
16.7,1.39189,27.68788
16.8,1.39993,27.89944
16.9,1.40834,28.28104
17,1.41686,28.43274
17.1,1.42532,28.77022
17.2,1.43362,28.92385
17.3,1.44171,29.32415
17.4,1.44991,29.27144
17.5,1.45848,29.80878
17.6,1.46695,29.9017
17.7,1.47536,30.33234
17.8,1.48355,30.53999
17.9,1.49159,30.88617
18,1.50005,30.94119
18.1,1.50857,31.20815
18.2,1.51698,31.39226
18.3,1.52529,31.76389
18.4,1.53332,32.03292
18.5,1.54163,32.15194
18.6,1.55014,32.52243
18.7,1.55855,32.83018
18.8,1.56696,33.13753
18.9,1.57516,33.35271
19,1.5833,33.52877
19.1,1.59171,33.83443
19.2,1.60023,34.17881
19.3,1.60864,34.34741
19.4,1.617,34.67886
19.5,1.62504,34.91247
19.6,1.63329,35.18598
19.7,1.64186,35.53457
19.8,1.65032,35.63177
19.9,1.65863,35.71497
20,1.66677,36.15463
20.1,1.67496,36.416
20.2,1.68338,36.72522
20.3,1.69189,36.94228
20.4,1.7003,37.36873
20.5,1.70855,37.44532
20.6,1.71664,37.76901
20.7,1.72495,37.86523
20.8,1.73357,38.24532
20.9,1.74198,38.50086
21,1.75034,38.61313
21.1,1.75848,39.20515
21.2,1.76662,39.18077
21.3,1.77509,39.58868
21.4,1.78361,39.65728
21.5,1.79196,40.07485
21.6,1.80021,40.08312
21.7,1.8083,40.47462
21.8,1.81661,40.6958
21.9,1.82518,40.96215
22,1.83364,41.27119
22.1,1.842,41.47293
22.2,1.85009,41.6896
22.3,1.85829,42.03572
22.4,1.8668,42.45886
22.5,1.87527,42.46621
22.6,1.88368,42.95378
22.7,1.89193,43.12257
22.8,1.89996,43.28465
22.9,1.90832,43.61659
23,1.91689,43.89345
23.1,1.9253,44.09808
23.2,1.93361,44.48552
23.3,1.9417,44.72321
23.4,1.94989,44.89865
23.5,1.95846,45.22099
23.6,1.96698,45.4035
23.7,1.97534,45.75031
23.8,1.98354,46.0945
23.9,1.99162,46.11265
24,2.00004,46.45382
24.1,2.00861,46.7204
24.2,2.01696,47.08645
24.3,2.02527,47.32545
24.4,2.03336,47.56035
24.5,2.04161,47.88172
24.6,2.05013,48.03147
24.7,2.05859,48.22208
24.8,2.06695,48.55496
24.9,2.07514,48.66796
25,2.08329,48.89805
25.1,2.0917,49.24115
25.2,2.10021,49.50562
25.3,2.10868,49.67762
25.4,2.11698,50.09311
25.5,2.12502,50.2006
25.6,2.13332,50.49161
25.7,2.14184,50.93857
25.8,2.1503,51.15105
25.9,2.15866,51.15325
26,2.1668,51.50373
26.1,2.17489,51.58654
26.2,2.18341,51.93496
26.3,2.19188,52.14981
26.4,2.20029,52.48523
26.5,2.20859,52.67091
26.6,2.21668,52.80807
26.7,2.22498,53.1266
26.8,2.23355,53.51751
26.9,2.24196,53.63654
27,2.25032,53.9081
27.1,2.25846,54.07069
27.2,2.26661,54.22248
27.3,2.27507,54.35857
27.4,2.28359,54.76516
27.5,2.29195,55.12102
27.6,2.30025,55.48701
27.7,2.30829,55.46598
27.8,2.31664,55.80196
27.9,2.32521,55.84241
28,2.33357,56.30667
28.1,2.34198,56.41536
28.2,2.35013,56.50243
28.3,2.35827,56.94173
28.4,2.36679,57.06973
28.5,2.3753,57.38731
28.6,2.38366,57.50224
28.7,2.39191,57.95596
28.8,2.4,58.14211
28.9,2.40836,58.09175
29,2.41682,58.5629
29.1,2.42529,58.57394
29.2,2.43359,58.94558
29.3,2.44173,59.05834
29.4,2.44998,59.29493
29.5,2.45845,59.34686
29.6,2.46691,59.88842
29.7,2.47532,59.99861
29.8,2.48357,60.20425
29.9,2.49161,60.23807
30,2.50007,60.48496
30.1,2.50854,60.70846
30.2,2.51695,60.88285
30.3,2.5253,61.15635
30.4,2.53339,61.49093
30.5,2.54159,61.5005
30.6,2.55016,61.69715
30.7,2.55857,62.02074
30.8,2.56698,62.0014
30.9,2.57512,62.28474
31,2.58327,62.5562
31.1,2.59173,62.64804
31.2,2.60025,62.81509
31.3,2.60866,62.74187
31.4,2.61696,63.18596
31.5,2.625,63.52586
31.6,2.6333,63.49727
31.7,2.64182,63.66525
31.8,2.65029,63.96846
31.9,2.65864,64.07459
32,2.66684,64.17536
32.1,2.67493,64.31417
32.2,2.68334,64.49526
32.3,2.69191,64.67632
32.4,2.70032,64.97524
32.5,2.70863,65.17458
32.6,2.71666,65.25722
32.7,2.72496,65.35445
32.8,2.73354,65.66978
32.9,2.74195,65.68761
33,2.75036,65.83045
33.1,2.7585,66.12432
33.2,2.76659,66.24395
33.3,2.77511,66.27769
33.4,2.78357,66.47252
33.5,2.79198,66.799
33.6,2.80023,66.79531
33.7,2.80827,66.93008
33.8,2.81662,67.22053
33.9,2.8252,67.126
34,2.83361,67.49461
34.1,2.84196,67.49213
34.2,2.85011,67.70426
34.3,2.8583,67.84439
34.4,2.86677,67.84467
34.5,2.87529,68.00025
34.6,2.88364,68.06805
34.7,2.89195,68.35357
34.8,2.89998,68.55148
34.9,2.90834,68.66056
35,2.91686,68.67294
35.1,2.92532,68.90041
35.2,2.93362,68.94763
35.3,2.94177,69.05016
35.4,2.94991,69.19565
35.5,2.95843,69.33984
35.6,2.96695,69.38437
35.7,2.9753,69.49709
35.8,2.98355,69.7475
35.9,2.99164,69.87637
36,3,69.82536
36.1,3.00857,69.90422
36.2,3.01704,69.97143
36.3,3.02529,70.14452
36.4,3.03337,70.18713
36.5,3.04163,70.55369
36.6,3.05014,70.49506
36.7,3.05861,70.61292
36.8,3.06696,70.76037
36.9,3.07521,70.74271
37,3.0833,71.11884
37.1,3.09171,71.04916
37.2,3.10023,70.97721
37.3,3.10864,71.06351
37.4,3.11695,71.40915
37.5,3.12504,71.2663
37.6,3.13329,71.52306
37.7,3.14186,71.4855
37.8,3.15032,71.71032
37.9,3.15862,71.61385
38,3.16677,71.74079
38.1,3.17491,71.76582
38.2,3.18337,71.95221
38.3,3.19189,72.08044
38.4,3.2003,72.22408
38.5,3.20861,72.14189
38.6,3.21664,72.20623
38.7,3.22495,72.20177
38.8,3.23357,72.29224
38.9,3.24198,72.39792
39,3.25034,72.544
39.1,3.25848,72.75339
39.2,3.26662,72.70041
39.3,3.27509,72.84834
39.4,3.28361,72.95615
39.5,3.29196,72.92587
39.6,3.30021,72.95537
39.7,3.3083,73.22979
39.8,3.31661,73.19631
39.9,3.32518,73.26456
40,3.33364,73.27921
40.1,3.342,73.22063
40.2,3.35009,73.34799
40.3,3.35829,73.37307
40.4,3.3668,73.64471
40.5,3.37527,73.56921
40.6,3.38368,73.75442
40.7,3.39193,73.82294
40.8,3.39991,73.94225
40.9,3.40832,73.93872
41,3.41689,73.97181
41.1,3.4253,74.04688
41.2,3.43361,74.05505
41.3,3.4417,74.32677
41.4,3.44989,74.31618
41.5,3.45846,74.3613
41.6,3.46693,74.44971
41.7,3.47534,74.47344
41.8,3.48354,74.55185
41.9,3.49163,74.61242
42,3.50004,74.61832
42.1,3.50855,74.77911
42.2,3.51696,74.80133
42.3,3.52532,74.95368
42.4,3.53336,74.80486
42.5,3.54155,74.92838
42.6,3.55018,74.86324
42.7,3.55859,74.9411
42.8,3.567,75.14583
42.9,3.57514,75.19923
43,3.58329,75.38182
43.1,3.5917,75.26582
43.2,3.60027,75.23303
43.3,3.60868,75.54083
43.4,3.61698,75.32208
43.5,3.62502,75.4341
43.6,3.63332,75.67909
43.7,3.64184,75.5968
43.8,3.6503,75.57076
43.9,3.65866,75.74315
44,3.6668,75.78671
44.1,3.67489,75.85988
44.2,3.68341,75.78391
44.3,3.69187,75.85849
44.4,3.70029,75.82236
44.5,3.70859,76.01147
44.6,3.71668,76.1216
44.7,3.72498,76.11638
44.8,3.73355,76.23426
44.9,3.74196,76.36273
45,3.75032,76.23148
45.1,3.75846,76.29883
45.2,3.76661,76.17498
45.3,3.77507,76.41612
45.4,3.78359,76.29557
45.5,3.792,76.28766
45.6,3.80025,76.66618
45.7,3.80829,76.69486
45.8,3.81664,76.7227
45.9,3.82521,76.68461
46,3.83363,76.81007
46.1,3.84198,76.77827
46.2,3.85007,76.66642
46.3,3.85827,76.97896
46.4,3.86679,77.06287
46.5,3.8753,77.01694
46.6,3.88366,76.94089
46.7,3.89186,77.0181
46.8,3.89995,77.16167
46.9,3.90836,77.05453
47,3.91682,77.11378
47.1,3.92529,77.22102
47.2,3.93359,77.24609
47.3,3.94173,77.27927
47.4,3.94993,77.40559
47.5,3.95845,77.37498
47.6,3.96696,77.46507
47.7,3.97532,77.53976
47.8,3.98357,77.68768
47.9,3.99161,77.63382
48,4.00002,77.69192
48.1,4.00859,77.53967
48.2,4.017,77.64956
48.3,4.02525,77.74261
48.4,4.03339,77.78331
48.5,4.04159,77.91299
48.6,4.05011,77.96319
48.7,4.05863,77.90247
48.8,4.06698,78.02199
48.9,4.07512,78.07278
49,4.08327,78.08627
49.1,4.09173,78.019
49.2,4.10025,78.2691
49.3,4.10866,78.28568
49.4,4.11696,78.18804
49.5,4.125,78.18743
49.6,4.1333,78.41179
49.7,4.14182,78.37841
49.8,4.15029,78.45565
49.9,4.15864,78.50011
50,4.16684,78.64343
50.1,4.17493,78.50814
50.2,4.18334,78.40382
50.3,4.19191,78.63657
50.4,4.20027,78.61057
50.5,4.20857,78.68559
50.6,4.21666,78.70213
50.7,4.22496,78.84234
50.8,4.23354,78.68152
50.9,4.242,78.80732
51,4.25036,78.77981
51.1,4.2585,78.9453
51.2,4.26664,78.99216
51.3,4.27511,78.96088
51.4,4.28357,79.05603
51.5,4.29198,79.0089
51.6,4.30023,78.81646
51.7,4.30827,78.82858
51.8,4.31663,79.25061
51.9,4.3252,79.13428
52,4.33361,79.06087
52.1,4.34196,79.37973
52.2,4.35011,79.33382
52.3,4.3583,79.44662
52.4,4.36677,79.38925
52.5,4.37523,79.5852
52.6,4.38364,79.30853
52.7,4.39189,79.12513
52.8,4.39993,79.23833
52.9,4.40834,79.59916
53,4.41686,79.50638
53.1,4.42532,79.75935
53.2,4.43362,79.37959
53.3,4.44177,79.36382
53.4,4.44991,79.27173
53.5,4.45848,79.50198
53.6,4.46689,79.77659
53.7,4.4753,79.71743
53.8,4.48355,79.42327
53.9,4.49164,79.37225
54,4.5,79.73724
54.1,4.50857,80.22126
54.2,4.51698,80.12048
54.3,4.52529,80.12011
54.4,4.53332,80.09859
54.5,4.54163,80.25435
54.6,4.55014,80.19485
54.7,4.55855,80.27718
54.8,4.56696,80.27892
54.9,4.57516,80.34512
55,4.5833,80.31841
55.1,4.59171,80.47211
55.2,4.60023,80.40234
55.3,4.60864,80.54812
55.4,4.61695,80.66377
55.5,4.62504,80.45737
55.6,4.63329,80.55888
55.7,4.64186,80.66963
55.8,4.65032,80.58881
55.9,4.65863,80.69022
56,4.66677,80.77207
56.1,4.67496,80.68698
56.2,4.68337,80.99612
56.3,4.69189,80.8092
56.4,4.70036,80.93166
56.5,4.70855,80.78428
56.6,4.71664,81.0417
56.7,4.725,80.87171
56.8,4.73357,81.14932
56.9,4.74198,81.01637
57,4.75034,81.02806
57.1,4.75848,81.07421
57.2,4.76657,81.06184
57.3,4.77509,81.12031
57.4,4.78355,81.32458
57.5,4.79196,81.32153
57.6,4.80021,81.06931
57.7,4.8083,81.27351
57.8,4.81661,81.27154
57.9,4.82518,81.29003
58,4.83364,81.31563
58.1,4.842,81.25011
58.2,4.85014,81.50344
58.3,4.85829,81.26869
58.4,4.86675,81.47397
58.5,4.87527,81.48115
58.6,4.88363,81.66003
58.7,4.89193,81.42957
58.8,4.89996,81.64872
58.9,4.90832,81.59687
59,4.91684,81.53361
59.1,4.92525,81.61024
59.2,4.93361,81.66268
59.3,4.9417,81.81129
59.4,4.94995,81.68878
59.5,4.95846,81.81059
59.6,4.96693,81.89481
59.7,4.97529,81.93199
59.8,4.98354,81.98487
59.9,4.99162,81.93642
60,5.00004,81.9146
60.1,5.00855,82.0961
60.2,5.01696,82.077
60.3,5.02532,82.07166
60.4,5.03336,82.08344
60.5,5.04155,82.14225
60.6,5.05013,81.97615
60.7,5.05859,82.03072
60.8,5.067,82.15278
60.9,5.0752,82.19606
61,5.08329,82.16098
61.1,5.0917,82.24397
61.2,5.10021,82.15409
61.3,5.10862,82.26096
61.4,5.11698,82.4165
61.5,5.12502,82.22826
61.6,5.13332,82.45596
61.7,5.14184,82.55998
61.8,5.1503,82.51112
61.9,5.15866,82.42832
62,5.1668,82.59518
62.1,5.17489,82.37986
62.2,5.18341,82.62077
62.3,5.19188,82.77933
62.4,5.20029,82.53636
62.5,5.20859,82.7378
62.6,5.21668,82.71323
62.7,5.22498,82.63364
62.8,5.2335,82.76087
62.9,5.24196,82.70284
63,5.25032,82.90885
63.1,5.25846,82.89474
63.2,5.26661,82.91212
63.3,5.27507,82.89655
63.4,5.28354,82.92598
63.5,5.29195,82.99573
63.6,5.30025,82.93508
63.7,5.30829,82.96541
63.8,5.31664,83.03783
63.9,5.32521,82.99673
64,5.33362,83.20962
64.1,5.34198,83.14208
64.2,5.35012,83.12402
64.3,5.35827,83.18348
64.4,5.36679,83.21283
64.5,5.37525,83.12348
64.6,5.38366,83.40673
64.7,5.39186,83.26685
64.8,5.39995,83.28015
64.9,5.4083,83.29978
65,5.41682,83.37919
65.1,5.42529,83.29874
65.2,5.43359,83.40109
65.3,5.44173,83.65759
65.4,5.44993,83.44928
65.5,5.45845,83.37167
65.6,5.46691,83.51849
65.7,5.47532,83.47138
65.8,5.48357,83.52586
65.9,5.49161,83.63943
66,5.50002,83.63275
66.1,5.50854,83.52643
66.2,5.51695,83.71382
66.3,5.52525,83.62209
66.4,5.53339,83.73026
66.5,5.54159,83.84842
66.6,5.55011,83.65528
66.7,5.55857,83.78606
66.8,5.56698,83.8761
66.9,5.57513,83.98492
67,5.58327,83.73376
67.1,5.59173,83.88548
67.2,5.60025,83.81754
67.3,5.60866,83.94248
67.4,5.61696,84.05621
67.5,5.625,83.86594
67.6,5.6333,83.99916
67.7,5.64182,83.93369
67.8,5.65029,83.98719
67.9,5.65864,84.09332
68,5.66684,84.19915
68.1,5.67493,84.27038
68.2,5.68334,84.07221
68.3,5.69191,83.92062
68.4,5.70027,84.22508
68.5,5.70862,84.25449
68.6,5.71666,84.22341
68.7,5.72496,84.3105
68.8,5.73348,84.24601
68.9,5.742,84.32111
69,5.75036,84.302
69.1,5.7585,84.3401
69.2,5.76659,84.19909
69.3,5.77511,84.22219
69.4,5.78357,84.48761
69.5,5.79193,84.29461
69.6,5.80023,84.27972
69.7,5.80827,84.4724
69.8,5.81663,84.27797
69.9,5.8252,84.40601
70,5.83361,84.39233
70.1,5.84196,84.55976
70.2,5.85011,84.56162
70.3,5.8583,84.55848
70.4,5.86677,84.56153
70.5,5.87523,84.49862
70.6,5.8837,84.61605
70.7,5.89189,84.58411
70.8,5.89993,84.71361
70.9,5.90834,84.64745
71,5.91686,84.76534
71.1,5.92527,84.84554
71.2,5.93362,84.55708
71.3,5.94177,84.75107
71.4,5.94986,84.76711
71.5,5.95848,84.83463
71.6,5.96695,84.77668
71.7,5.97536,84.9802
71.8,5.98355,84.9343
71.9,5.99159,85.03436
72,6,85.04312
72.1,6.00857,84.94
72.2,6.01698,85.00199
72.3,6.02534,84.87786
72.4,6.03332,85.15617
72.5,6.04163,84.92786
72.6,6.05014,84.93447
72.7,6.05855,85.1495
72.8,6.06696,85.09779
72.9,6.07521,85.00588
73,6.0833,85.11581
73.1,6.09171,85.14529
73.2,6.10023,85.12286
73.3,6.10864,85.35194
73.4,6.11695,85.19678
73.5,6.12504,85.29691
73.6,6.13329,85.19361
73.7,6.14186,85.23675
73.8,6.15032,85.37231
73.9,6.15862,85.34687
74,6.16677,85.21034
74.1,6.17491,85.28898
74.2,6.18337,85.30866
74.3,6.19189,85.48372
74.4,6.2003,85.52455
74.5,6.20861,85.45206
74.6,6.21664,85.6282
74.7,6.22495,85.57983
74.8,6.23357,85.35339
74.9,6.24198,85.47168
75,6.25034,85.57859
75.1,6.25848,85.60703
75.2,6.26657,85.55363
75.3,6.27504,85.46523
75.4,6.28361,85.71323
75.5,6.29196,85.69582
75.6,6.30021,85.76491
75.7,6.3083,85.78662
75.8,6.31661,85.69393
75.9,6.32518,85.75426
76,6.33364,85.89568
76.1,6.342,85.82239
76.2,6.35009,85.72906
76.3,6.35829,85.78294
76.4,6.3668,85.74594
76.5,6.37527,85.75325
76.6,6.38368,85.89124
76.7,6.39193,85.9438
76.8,6.39996,85.99677
76.9,6.40832,85.9322
77,6.41684,85.88597
77.1,6.4253,86.13612
77.2,6.43361,86.17599
77.3,6.4417,86.04909
77.4,6.44989,86.18646
77.5,6.45846,85.97884
77.6,6.46698,86.03635
77.7,6.47534,86.07834
77.8,6.48354,86.13292
77.9,6.49162,86.30779
78,6.50004,86.14935
78.1,6.50855,86.16039
78.2,6.51696,86.27972
78.3,6.52532,86.19113
78.4,6.53336,86.23409
78.5,6.54155,86.29153
78.6,6.55018,86.24922
78.7,6.55859,86.39742
78.8,6.567,86.44743
78.9,6.57514,86.44954
79,6.58329,86.4721
79.1,6.5917,86.43485
79.2,6.60021,86.52882
79.3,6.60868,86.42683
79.4,6.61698,86.3399
79.5,6.62502,86.47329
79.6,6.63332,86.51186
79.7,6.64184,86.46982
79.8,6.6503,86.46317
79.9,6.65866,86.68027
80,6.6668,86.56236
80.1,6.67495,86.6013
80.2,6.68341,86.45668
80.3,6.69193,86.59975
80.4,6.70029,86.59992
80.5,6.70859,86.86626
80.6,6.71668,86.53493
80.7,6.72498,86.71268
80.8,6.7335,86.7356
80.9,6.74196,86.65613
81,6.75032,86.84343
81.1,6.75846,86.92429
81.2,6.76661,86.8524
81.3,6.77507,86.92225
81.4,6.78364,86.72771
81.5,6.792,86.96362
81.6,6.8002,87.03812
81.7,6.80829,87.0617
81.8,6.81664,86.99654
81.9,6.82521,86.81299
82,6.83357,86.9341
82.1,6.84198,86.96439
82.2,6.85012,86.91246
82.3,6.85821,87.10277
82.4,6.86679,87.17712
82.5,6.8753,86.96638
82.6,6.88366,87.08445
82.7,6.89191,87.25671
82.8,6.89995,87.18582
82.9,6.90836,87.0283
83,6.91682,87.12785
83.1,6.92529,86.91181
83.2,6.93359,87.06645
83.3,6.94173,87.31721
83.4,6.94993,87.26186
83.5,6.95845,87.44077
83.6,6.96691,87.34364
83.7,6.97532,87.26787
83.8,6.98357,87.48621
83.9,6.99161,87.40038
84,7.00007,87.21085
84.1,7.00859,87.37437
84.2,7.01695,87.3452
84.3,7.02525,87.24341
84.4,7.03339,87.51862
84.5,7.04164,87.35275
84.6,7.05016,87.34952
84.7,7.05862,87.54281
84.8,7.06698,87.52019
84.9,7.07512,87.48398
85,7.08327,87.62563
85.1,7.09173,87.63409
85.2,7.10025,87.75073
85.3,7.10866,87.80001
85.4,7.11696,87.67243
85.5,7.125,87.66439
85.6,7.1333,87.73203
85.7,7.14182,87.70319
85.8,7.15029,87.62043
85.9,7.15864,87.69365
86,7.16684,87.76212
86.1,7.17493,87.84161
86.2,7.18334,87.63055
86.3,7.19191,87.71295
86.4,7.20032,87.92795
86.5,7.20862,87.82269
86.6,7.21666,87.74158
86.7,7.22502,87.81382
86.8,7.23354,87.68552
86.9,7.24195,87.9377
87,7.25036,87.80493
87.1,7.25845,88.07034
87.2,7.26664,87.72792
87.3,7.27511,87.72794
87.4,7.28357,88.01332
87.5,7.29198,87.9462
87.6,7.30023,87.96779
87.7,7.30827,88.14614
87.8,7.31662,88.00839
87.9,7.3252,88.06923
88,7.33361,88.16642
88.1,7.34196,88.1387
88.2,7.35011,88.10057
88.3,7.3583,87.9247
88.4,7.36677,88.06708
88.5,7.37523,88.37054
88.6,7.38364,88.06067
88.7,7.39189,88.22049
88.8,7.39993,88.24184
88.9,7.40834,88.00057
89,7.41686,88.23302
89.1,7.42532,88.1231
89.2,7.43362,88.19328
89.3,7.44177,88.07912
89.4,7.44991,88.36716
89.5,7.45848,88.32126
89.6,7.46689,88.45219
89.7,7.4753,88.2749
89.8,7.48355,88.32909
89.9,7.49164,88.34795
90,7.5,88.21969
90.1,7.50857,88.35673
90.2,7.51698,88.29081
90.3,7.52529,88.21191
90.4,7.53332,88.39536
90.5,7.54163,88.62215
90.6,7.55014,88.44999
90.7,7.55855,88.2655
90.8,7.56696,88.55596
90.9,7.57521,88.41936
91,7.5833,88.55116
91.1,7.59171,88.59046
91.2,7.60023,88.48756
91.3,7.60864,88.532
91.4,7.61695,88.55767
91.5,7.62504,88.30738
91.6,7.63329,88.90996
91.7,7.64186,89.02737
91.8,7.65027,89.43701
91.9,7.65868,89.12865
92,7.66682,89.03907
92.1,7.67496,88.75797
92.2,7.68337,88.68373
92.3,7.69189,88.87235
92.4,7.7003,88.74417
92.5,7.70866,88.7635
92.6,7.71664,88.86216
92.7,7.72495,88.86815
92.8,7.73352,88.93604
92.9,7.74198,88.73376
93,7.75034,88.82345
93.1,7.75848,88.90282
93.2,7.76662,88.91624
93.3,7.77509,88.94218
93.4,7.78361,88.76941
