Time,Displacement,Force
(s),(mm),(N)
0,0,0.04178
0.1,0.00696,-0.03478
0.2,0.01661,-0.06859
0.3,0.02513,0.03225
0.4,0.03321,0.03588
0.5,0.04168,0.01893
0.6,0.0502,0.00331
0.7,0.05861,0.31544
0.8,0.06691,0.02037
0.9,0.07505,0.24944
1,0.08325,0.26647
1.1,0.09182,0.41591
1.2,0.10023,0.62851
1.3,0.10864,0.60629
1.4,0.11679,0.64954
1.5,0.12493,0.91686
1.6,0.13339,0.81081
1.7,0.14191,0.87773
1.8,0.15032,1.14917
1.9,0.15863,1.0787
2,0.16666,1.1114
2.1,0.17496,1.27297
2.2,0.18348,1.24813
2.3,0.19195,1.56326
2.4,0.2003,1.80227
2.5,0.20845,1.83127
2.6,0.21659,1.79944
2.7,0.225,2.1002
2.8,0.23357,1.9415
2.9,0.24193,2.18991
3,0.25023,2.31381
3.1,0.25832,2.15833
3.2,0.26662,2.40085
3.3,0.2752,2.61542
3.4,0.28366,2.61638
3.5,0.29202,2.80588
3.6,0.30016,2.7119
3.7,0.3083,3.02583
3.8,0.31671,2.91767
3.9,0.32523,2.99373
4,0.33364,3.13358
4.1,0.34189,3.34924
4.2,0.34993,3.21749
4.3,0.35829,3.5023
4.4,0.36686,3.47961
4.5,0.37527,3.65236
4.6,0.38363,3.63545
4.7,0.39177,3.79841
4.8,0.39996,3.88607
4.9,0.40843,3.92051
5,0.41695,4.05906
5.1,0.4253,4.13226
5.2,0.43355,4.22134
5.3,0.44159,4.25508
5.4,0.45,4.44232
5.5,0.45852,4.4171
5.6,0.46698,4.64789
5.7,0.47529,4.74449
5.8,0.48337,4.76549
5.9,0.49157,4.94335
6,0.50014,5.14157
6.1,0.50861,5.03824
6.2,0.51702,5.24951
6.3,0.52521,5.28173
6.4,0.5333,5.45515
6.5,0.54166,5.62997
6.6,0.55023,5.65961
6.7,0.55864,5.79625
6.8,0.56695,5.74318
6.9,0.57498,5.8964
7,0.58323,5.91608
7.1,0.5918,5.9501
7.2,0.60021,6.13734
7.3,0.60862,6.31604
7.4,0.61682,6.29318
7.5,0.62491,6.68365
7.6,0.63338,6.43491
7.7,0.64189,6.64806
7.8,0.6503,6.77113
7.9,0.65861,6.7339
8,0.6667,6.94119
8.1,0.67495,7.04041
8.2,0.68346,7.06761
8.3,0.69198,7.08614
8.4,0.70029,7.25626
8.5,0.70843,7.22149
8.6,0.71657,7.31768
8.7,0.72504,7.30419
8.8,0.73355,7.39923
8.9,0.74196,7.33457
9,0.75027,7.38821
9.1,0.7583,7.36195
9.2,0.76666,7.14291
9.3,0.77523,7.17174
9.4,0.78364,7.34179
9.5,0.792,7.46317
9.6,0.80014,7.56528
9.7,0.80823,7.59746
9.8,0.81675,7.44841
9.9,0.82527,7.51494
10,0.83362,7.42988
10.1,0.84187,7.56034
10.2,0.84996,7.72088
10.3,0.85827,7.89165
10.4,0.86684,7.91641
10.5,0.8753,7.99203
10.6,0.88361,8.03767
10.7,0.89175,8.11107
10.8,0.89995,8.17622
10.9,0.90846,8.09846
11,0.91693,8.32108
11.1,0.92529,8.35704
11.2,0.93359,8.10555
11.3,0.94162,8.15271
11.4,0.94998,8.19969
11.5,0.9585,8.06796
11.6,0.96696,8.10469
11.7,0.97527,8.11217
11.8,0.98336,8.10702
11.9,0.99161,8.13607
12,1.00012,8.30181
12.1,1.00859,8.27991
12.2,1.017,8.34388
12.3,1.0252,8.23109
12.4,1.03329,8.28479
12.5,1.0417,8.52481
12.6,1.05021,8.41287
12.7,1.05863,8.79256
12.8,1.06693,8.72187
12.9,1.07502,8.84494
13,1.08321,9.00182
13.1,1.09179,8.91227
13.2,1.10025,9.14235
13.3,1.10861,9.10267
13.4,1.11686,9.20584
13.5,1.12495,9.36425
13.6,1.13336,9.46785
13.7,1.14188,9.5132
13.8,1.15034,9.74756
13.9,1.15859,9.78926
14,1.16668,9.88346
14.1,1.17498,10.00395
14.2,1.1835,10.04031
14.3,1.19196,10.11876
14.4,1.20032,10.23984
14.5,1.20841,10.17537
14.6,1.21655,10.36583
14.7,1.22507,10.51503
14.8,1.23359,10.65374
14.9,1.24195,10.68836
15,1.25025,10.84587
15.1,1.25834,10.89973
15.2,1.26664,11.04475
15.3,1.27516,11.1271
15.4,1.28363,11.17019
15.5,1.29198,11.27345
15.6,1.30013,11.52646
15.7,1.30827,11.42397
15.8,1.31673,11.73507
15.9,1.32525,11.92609
16,1.33361,11.8283
16.1,1.34191,11.85475
16.2,1.34995,12.00591
16.3,1.3583,12.06058
16.4,1.36688,12.08929
16.5,1.37529,12.29079
16.6,1.38364,12.35303
16.7,1.39173,12.43706
16.8,1.39988,12.58197
16.9,1.40845,12.75975
17,1.41696,12.72529
17.1,1.42532,12.80041
17.2,1.43357,12.96238
17.3,1.44161,13.10202
17.4,1.44996,13.23484
17.5,1.45848,13.29908
17.6,1.46695,13.43889
17.7,1.47525,13.4159
17.8,1.48339,13.54438
17.9,1.49159,13.75919
18,1.50011,13.7402
18.1,1.50857,13.9619
18.2,1.51698,14.0978
18.3,1.52523,14.13978
18.4,1.53327,14.03947
18.5,1.54168,14.46904
18.6,1.5502,14.38236
18.7,1.55861,14.55388
18.8,1.56691,14.7407
18.9,1.575,14.72764
19,1.58325,14.72689
19.1,1.59177,14.9444
19.2,1.60029,14.90908
19.3,1.60864,15.12545
19.4,1.61679,15.21348
19.5,1.62493,15.43236
19.6,1.63339,15.39134
19.7,1.64191,15.66943
19.8,1.65032,15.67176
19.9,1.65863,15.7997
20,1.66666,15.92655
20.1,1.67496,15.96969
20.2,1.68348,15.91527
20.3,1.69195,16.1248
20.4,1.7003,16.14193
20.5,1.7085,16.45089
20.6,1.71659,16.50189
20.7,1.725,16.5261
20.8,1.73357,16.61441
20.9,1.74193,16.76829
21,1.75023,16.827
21.1,1.75832,16.92705
21.2,1.76662,17.08141
21.3,1.77514,17.20453
21.4,1.78361,17.09966
21.5,1.79202,17.50747
21.6,1.80016,17.58765
21.7,1.80825,17.6132
21.8,1.81677,17.63523
21.9,1.82523,17.74302
22,1.83359,17.78484
22.1,1.84189,18.07704
22.2,1.84993,18.23098
22.3,1.85829,18.10295
22.4,1.86686,18.45941
22.5,1.87527,18.42734
22.6,1.88362,18.43839
22.7,1.89177,18.5365
22.8,1.89996,18.78431
22.9,1.90843,18.83607
23,1.91695,19.01021
23.1,1.92536,19.06082
23.2,1.93355,19.19254
23.3,1.94159,19.18281
23.4,1.95,19.1876
23.5,1.95852,19.25451
23.6,1.96698,19.55817
23.7,1.97529,19.65236
23.8,1.98343,19.59059
23.9,1.99157,19.81017
24,2.00009,19.89986
24.1,2.00861,20.11638
24.2,2.01702,20.11966
24.3,2.02521,20.30836
24.4,2.0333,20.41624
24.5,2.04166,20.42293
24.6,2.05018,20.4834
24.7,2.05864,20.56125
24.8,2.06695,20.74294
24.9,2.07498,20.87188
25,2.08323,21.11403
25.1,2.0918,21.14781
25.2,2.10021,21.23515
25.3,2.10863,21.28626
25.4,2.11682,21.34718
25.5,2.12496,21.55122
25.6,2.13337,21.4687
25.7,2.14189,21.63314
25.8,2.1503,21.80904
25.9,2.15861,21.84009
26,2.1667,22.08827
26.1,2.17489,22.01377
26.2,2.18346,22.16349
26.3,2.19193,22.28999
26.4,2.20029,22.35771
26.5,2.20843,22.42914
26.6,2.21657,22.46549
26.7,2.22504,22.84951
26.8,2.23355,22.9177
26.9,2.24196,22.84406
27,2.25027,23.02427
27.1,2.2583,23.21714
27.2,2.26661,23.27434
27.3,2.27523,23.45686
27.4,2.28364,23.41577
27.5,2.29195,23.54204
27.6,2.30014,23.62996
27.7,2.30823,23.66401
27.8,2.31675,23.79106
27.9,2.32521,24.12035
28,2.33362,24.18862
28.1,2.34188,24.34061
28.2,2.34996,24.16311
28.3,2.35827,24.42864
28.4,2.36684,24.52097
28.5,2.37525,24.54823
28.6,2.38366,24.6767
28.7,2.39175,24.83374
28.8,2.39995,25.03079
28.9,2.40841,24.98336
29,2.41693,25.05229
29.1,2.42534,25.29173
29.2,2.43359,25.24154
29.3,2.44163,25.62121
29.4,2.44998,25.55397
29.5,2.4585,25.56587
29.6,2.46696,25.71456
29.7,2.47527,25.98435
29.8,2.48336,25.84617
29.9,2.49155,26.07298
30,2.50012,26.22784
30.1,2.50859,26.16019
30.2,2.517,26.4413
30.3,2.5252,26.46979
30.4,2.53329,26.58973
30.5,2.5417,26.93952
30.6,2.55021,26.74984
30.7,2.55862,26.9803
30.8,2.56698,26.97534
30.9,2.57502,27.27074
31,2.58321,27.03709
31.1,2.59184,27.22159
31.2,2.60025,27.42863
31.3,2.60866,27.67837
31.4,2.6168,27.57436
31.5,2.62495,27.81724
31.6,2.63336,27.73431
31.7,2.64193,28.1024
31.8,2.65034,28.14405
31.9,2.65859,28.07872
32,2.66668,28.34684
32.1,2.67498,28.38074
32.2,2.6835,28.51921
32.3,2.69196,28.57334
32.4,2.70032,28.86214
32.5,2.70846,28.87245
32.6,2.71655,28.98332
32.7,2.72507,29.07474
32.8,2.73354,29.04707
32.9,2.74195,29.09813
33,2.75025,29.2914
33.1,2.75834,29.40041
33.2,2.76664,29.51146
33.3,2.77521,29.71527
33.4,2.78362,29.85292
33.5,2.79198,29.90974
33.6,2.80007,30.05047
33.7,2.80827,30.04772
33.8,2.81673,30.31075
33.9,2.82525,30.4711
34,2.83366,30.33788
34.1,2.84191,30.66821
34.2,2.84995,30.66852
34.3,2.8583,30.7142
34.4,2.86687,30.91752
34.5,2.87529,30.95009
34.6,2.88364,31.09789
34.7,2.89173,31.12947
34.8,2.89993,31.34463
34.9,2.90845,31.44778
35,2.91691,31.46922
35.1,2.92532,31.5337
35.2,2.93352,31.83825
35.3,2.94161,31.84288
35.4,2.94996,31.87673
35.5,2.95848,32.11169
35.6,2.96695,32.02378
35.7,2.97525,32.35802
35.8,2.98339,32.13213
35.9,2.99159,32.4738
36,3.00011,32.50026
36.1,3.00863,32.52706
36.2,3.01698,32.75625
36.3,3.02518,32.85054
36.4,3.03327,33.05135
36.5,3.04168,33.24063
36.6,3.0502,33.29332
36.7,3.05861,33.19547
36.8,3.06691,33.4094
36.9,3.07505,33.63365
37,3.08325,33.53092
37.1,3.09182,33.61692
37.2,3.10023,33.88443
37.3,3.10859,33.85124
37.4,3.11679,34.08334
37.5,3.12493,34.19486
37.6,3.13334,34.06493
37.7,3.14191,34.28344
37.8,3.15032,34.43943
37.9,3.15862,34.51754
38,3.16666,34.61592
38.1,3.17496,34.88489
38.2,3.18348,34.89587
38.3,3.19195,34.73304
38.4,3.20025,35.02038
38.5,3.20845,35.13699
38.6,3.21659,35.17803
38.7,3.225,35.48069
38.8,3.23357,35.45171
38.9,3.24193,35.54868
39,3.25023,35.63442
39.1,3.25832,35.63873
39.2,3.26662,35.82743
39.3,3.2752,35.99864
39.4,3.28361,36.09072
39.5,3.29202,36.15044
39.6,3.30011,36.37148
39.7,3.3083,36.22887
39.8,3.31677,36.43354
39.9,3.32523,36.69913
40,3.33359,36.64515
40.1,3.34184,36.93769
40.2,3.34993,36.97953
40.3,3.35829,37.03851
40.4,3.36686,37.1628
40.5,3.37527,37.39775
40.6,3.38363,37.4139
40.7,3.39177,37.43514
40.8,3.39996,37.72691
40.9,3.40843,37.64331
41,3.41695,37.73369
41.1,3.4253,38.02433
41.2,3.43355,37.88033
41.3,3.44159,38.24431
41.4,3.45,38.19536
41.5,3.45852,38.3541
41.6,3.46698,38.44734
41.7,3.47529,38.51354
41.8,3.48337,38.66985
41.9,3.49152,38.62878
42,3.50009,38.96718
42.1,3.50855,39.03336
42.2,3.51696,39.17045
42.3,3.52516,39.23511
42.4,3.5333,39.36065
42.5,3.54166,39.43433
42.6,3.55023,39.74636
42.7,3.55864,39.61421
42.8,3.56695,39.71779
42.9,3.57498,39.93241
43,3.58329,40.06771
43.1,3.5918,39.94063
43.2,3.60021,40.16998
43.3,3.60862,40.2528
43.4,3.61682,40.24667
43.5,3.62496,40.51123
43.6,3.63337,40.58488
43.7,3.64189,40.65866
43.8,3.6503,40.79517
43.9,3.65861,40.97635
44,3.6667,41.0658
44.1,3.67495,41.30882
44.2,3.68352,41.40949
44.3,3.69193,41.31165
44.4,3.70029,41.466
44.5,3.70843,41.57373
44.6,3.71662,41.48298
44.7,3.72504,41.77832
44.8,3.73355,41.88785
44.9,3.74196,42.13935
45,3.75027,42.08851
45.1,3.7583,42.28494
45.2,3.76666,42.39714
45.3,3.77523,42.51387
45.4,3.78364,42.63731
45.5,3.792,42.77134
45.6,3.80014,42.83556
45.7,3.80829,42.9187
45.8,3.81675,43.02245
45.9,3.82521,43.14588
46,3.83363,43.26588
46.1,3.84187,43.4325
46.2,3.84996,43.54583
46.3,3.85827,43.67547
46.4,3.86684,43.7131
46.5,3.87525,43.80726
46.6,3.88366,43.95029
46.7,3.89175,44.22161
46.8,3.89995,44.13632
46.9,3.90846,44.16424
47,3.91693,44.42109
47.1,3.92529,44.54315
47.2,3.93359,44.59755
47.3,3.94157,44.879
47.4,3.94998,44.8289
47.5,3.9585,45.00916
47.6,3.96691,45.17706
47.7,3.97527,45.09531
47.8,3.98336,45.40151
47.9,3.99155,45.33939
48,4.00012,45.63284
48.1,4.00859,45.65574
48.2,4.017,45.66345
48.3,4.0252,45.94129
48.4,4.03329,45.89958
48.5,4.0417,46.16576
48.6,4.05021,46.14304
48.7,4.05863,46.19057
48.8,4.06693,46.30493
48.9,4.07502,46.4487
49,4.08321,46.72502
49.1,4.09179,46.8362
49.2,4.10025,46.77022
49.3,4.10866,47.0145
49.4,4.11686,46.89148
49.5,4.12495,47.18375
49.6,4.1333,47.2833
49.7,4.14188,47.3215
49.8,4.15034,47.62051
49.9,4.15864,47.5762
50,4.16668,47.64333
50.1,4.17493,47.78116
50.2,4.1835,47.94017
50.3,4.19196,48.09431
50.4,4.20032,48.10358
50.5,4.20846,48.19958
50.6,4.21655,48.35112
50.7,4.22507,48.4151
50.8,4.23354,48.55963
50.9,4.24195,48.48836
51,4.25025,48.75635
51.1,4.25834,48.81829
51.2,4.26664,48.88976
51.3,4.27516,49.22398
51.4,4.28363,49.10461
51.5,4.29198,49.14514
51.6,4.30013,49.38289
51.7,4.30827,49.44735
51.8,4.31673,49.5691
51.9,4.32525,49.75603
52,4.33361,49.94708
52.1,4.34191,49.97091
52.2,4.34995,50.01239
52.3,4.3583,50.17414
52.4,4.36687,50.36089
52.5,4.37523,50.27287
52.6,4.38364,50.42952
52.7,4.39173,50.65435
52.8,4.39988,50.6844
52.9,4.40839,50.79799
53,4.41691,50.83682
53.1,4.42532,50.94754
53.2,4.43357,51.05356
53.3,4.44161,51.20434
53.4,4.44996,51.38308
53.5,4.45848,51.47116
53.6,4.46695,51.48381
53.7,4.47525,51.62823
53.8,4.48339,51.71068
53.9,4.49159,51.95067
54,4.50011,51.93032
54.1,4.50857,51.99638
54.2,4.51698,52.33051
54.3,4.52523,52.50907
54.4,4.53327,52.36221
54.5,4.54168,52.46215
54.6,4.5502,52.79665
54.7,4.55861,52.65963
54.8,4.56691,52.90992
54.9,4.575,53.0895
55,4.58325,53.04815
55.1,4.59182,53.21061
55.2,4.60029,53.30952
55.3,4.60864,53.56998
55.4,4.61679,53.54375
55.5,4.62493,53.65052
55.6,4.63339,53.73022
55.7,4.64191,53.97243
55.8,4.65032,53.9636
55.9,4.65863,54.02457
56,4.66666,54.13808
56.1,4.67496,54.31742
56.2,4.68348,54.50503
56.3,4.69195,54.42683
56.4,4.7003,54.61368
56.5,4.7085,54.72361
56.6,4.71659,54.85859
56.7,4.725,55.00297
56.8,4.73357,55.03592
56.9,4.74198,55.14892
57,4.75029,55.29995
57.1,4.75832,55.27675
57.2,4.76662,55.61444
57.3,4.77514,55.35999
57.4,4.78366,55.654
57.5,4.79202,56.01411
57.6,4.80016,55.99069
57.7,4.80825,55.92164
57.8,4.81671,56.0443
57.9,4.82523,56.28407
58,4.83364,56.47005
58.1,4.84189,56.49321
58.2,4.84987,56.60979
58.3,4.85829,56.57993
58.4,4.86686,56.60981
58.5,4.87532,56.98363
58.6,4.88363,56.79486
58.7,4.89177,57.32642
58.8,4.89996,57.20545
58.9,4.90843,57.18961
59,4.91695,57.40916
59.1,4.92536,57.64893
59.2,4.93355,57.84122
59.3,4.94159,57.82316
59.4,4.95,58.07445
59.5,4.95852,57.99417
59.6,4.96698,58.13037
59.7,4.97529,58.38633
59.8,4.98338,58.42324
59.9,4.99152,58.53572
60,5.00009,58.62319
60.1,5.00861,58.73436
60.2,5.01702,58.79715
60.3,5.02521,58.93267
60.4,5.03325,58.86557
60.5,5.04166,59.17107
60.6,5.05023,59.20562
60.7,5.05864,59.3554
60.8,5.06695,59.50254
60.9,5.07498,59.52659
61,5.08323,59.62197
61.1,5.0918,59.75037
61.2,5.10021,59.85018
61.3,5.10862,59.9901
61.4,5.11682,60.08778
61.5,5.12496,60.37414
61.6,5.13338,60.33237
61.7,5.14189,60.45207
61.8,5.1503,60.64988
61.9,5.15861,60.43886
62,5.1667,60.90362
62.1,5.17495,60.99069
62.2,5.18352,60.69064
62.3,5.19198,60.99868
62.4,5.20029,61.35503
62.5,5.20843,61.18593
62.6,5.21663,61.4136
62.7,5.22504,61.47709
62.8,5.23355,61.68258
62.9,5.24196,61.64741
63,5.25027,61.70894
63.1,5.2583,62.07379
63.2,5.26661,62.01166
63.3,5.27523,62.1238
63.4,5.28364,62.23787
63.5,5.29195,62.52058
63.6,5.30014,62.43947
63.7,5.30829,62.59251
63.8,5.31675,62.84924
63.9,5.32521,62.80763
64,5.33362,62.96169
64.1,5.34188,62.9394
64.2,5.34996,63.16507
64.3,5.35827,63.35223
64.4,5.36684,63.27735
64.5,5.3753,63.54416
64.6,5.38366,63.81828
64.7,5.39175,63.77243
64.8,5.39995,63.65645
64.9,5.40846,63.89125
65,5.41693,64.1517
65.1,5.42529,64.18722
65.2,5.43359,64.1956
65.3,5.44163,64.28672
65.4,5.44998,64.67007
65.5,5.45855,64.45253
65.6,5.46691,64.78884
65.7,5.47527,64.76419
65.8,5.48336,64.86654
65.9,5.49155,65.04697
66,5.50013,65.08289
66.1,5.50864,65.2047
66.2,5.517,65.41705
66.3,5.5252,65.53847
66.4,5.53329,65.46089
66.5,5.5417,65.5096
66.6,5.55021,65.70074
66.7,5.55862,65.94244
66.8,5.56698,66.10854
66.9,5.57502,66.09679
67,5.58321,66.10584
67.1,5.59179,66.39243
67.2,5.60025,66.55255
67.3,5.60866,66.45148
67.4,5.61686,66.69952
67.5,5.62495,66.9807
67.6,5.63336,66.76495
67.7,5.64187,66.98127
67.8,5.65034,67.18721
67.9,5.65864,67.27041
68,5.66668,67.24933
68.1,5.67498,67.29068
68.2,5.6835,67.60059
68.3,5.69196,67.62814
68.4,5.70032,67.68383
68.5,5.70846,67.8355
68.6,5.71655,67.97932
68.7,5.72507,68.09752
68.8,5.73354,68.13811
68.9,5.74195,68.31053
69,5.75025,68.37871
69.1,5.75834,68.4306
69.2,5.76664,68.6383
69.3,5.77516,68.7001
69.4,5.78363,68.82156
69.5,5.79198,68.95542
69.6,5.80013,69.17664
69.7,5.80832,69.07116
69.8,5.81673,69.20544
69.9,5.82525,69.50855
70,5.83361,69.69461
70.1,5.84186,69.64166
70.2,5.84995,69.7223
70.3,5.8583,69.84487
70.4,5.86688,69.96742
70.5,5.87523,70.15487
70.6,5.88364,70.24475
70.7,5.89179,70.3047
70.8,5.89988,70.3392
70.9,5.90845,70.4383
71,5.91691,70.63184
71.1,5.92532,70.85203
71.2,5.93357,70.97012
71.3,5.94166,71.01141
71.4,5.95002,71.13818
71.5,5.95848,71.13831
71.6,5.96695,71.31667
71.7,5.97525,71.34921
71.8,5.98339,71.62484
71.9,5.99159,71.69795
72,6.00011,71.77545
72.1,6.00857,71.75565
72.2,6.01698,72.07277
72.3,6.02518,72.07758
72.4,6.03327,72.08984
72.5,6.04168,72.25353
72.6,6.0502,72.48084
72.7,6.05861,72.66113
72.8,6.06691,72.32971
72.9,6.07505,72.71149
73,6.08325,72.87977
73.1,6.09182,72.91325
73.2,6.10029,73.23554
73.3,6.10859,73.21798
73.4,6.11679,73.29692
73.5,6.12493,73.27183
73.6,6.13339,73.36671
73.7,6.14191,73.50439
73.8,6.15032,73.7872
73.9,6.15862,73.66801
74,6.16666,73.93258
74.1,6.17496,74.08851
74.2,6.18354,74.06639
74.3,6.19195,74.22714
74.4,6.2003,74.3744
74.5,6.20845,74.28793
74.6,6.21659,74.58273
74.7,6.225,74.42012
74.8,6.23357,74.82772
74.9,6.24198,75.00916
75,6.25023,74.9132
75.1,6.25832,75.02863
75.2,6.26662,75.21297
75.3,6.2752,75.21332
75.4,6.28361,75.36137
75.5,6.29196,75.51488
75.6,6.30016,75.4819
75.7,6.3083,75.73937
75.8,6.31677,75.6268
75.9,6.32523,75.8551
76,6.33359,76.04443
76.1,6.34189,76.03401
76.2,6.34993,76.27123
76.3,6.35829,76.16595
76.4,6.36686,76.40178
76.5,6.37527,76.45653
76.6,6.38363,76.67537
76.7,6.39177,76.75861
76.8,6.39996,76.90621
76.9,6.40843,76.77197
77,6.41695,76.83907
77.1,6.4253,77.06716
77.2,6.43355,77.19305
77.3,6.44159,77.47907
77.4,6.45,77.42726
77.5,6.45852,77.37858
77.6,6.46693,77.75876
77.7,6.47529,77.79094
77.8,6.48337,77.90833
77.9,6.49157,77.88496
78,6.50009,78.12366
78.1,6.50855,78.16756
78.2,6.51696,78.37479
78.3,6.52521,78.45388
78.4,6.5333,78.32733
78.5,6.54166,78.52462
78.6,6.55018,78.62592
78.7,6.55864,78.86876
78.8,6.56695,79.06264
78.9,6.57504,79.09444
79,6.58329,79.17262
79.1,6.5918,79.10342
79.2,6.60016,79.46851
79.3,6.60862,79.44774
79.4,6.61688,79.3878
79.5,6.62496,79.64616
79.6,6.63337,79.69437
79.7,6.64189,79.78284
79.8,6.6503,79.84337
79.9,6.65861,80.18393
80,6.6667,80.18509
80.1,6.67495,80.2517
80.2,6.68346,80.35904
80.3,6.69193,80.53966
80.4,6.70029,80.62424
80.5,6.70843,80.78139
80.6,6.71662,80.75684
80.7,6.72504,80.91472
80.8,6.73355,80.71209
80.9,6.74196,81.05556
81,6.75027,81.30022
81.1,6.7583,81.26163
81.2,6.76661,81.46953
81.3,6.77523,81.37836
81.4,6.78364,81.48361
81.5,6.792,81.67191
81.6,6.80009,81.71262
81.7,6.80829,81.90088
81.8,6.81675,82.03662
81.9,6.82527,81.85908
82,6.83362,82.13612
82.1,6.84188,82.33954
82.2,6.84996,82.50546
82.3,6.85827,82.37625
82.4,6.86684,82.67656
82.5,6.8753,82.79655
82.6,6.88361,82.84556
82.7,6.89175,82.92783
82.8,6.89995,83.00159
82.9,6.90841,83.0305
83,6.91693,83.34681
83.1,6.92529,83.41639
83.2,6.93359,83.35148
83.3,6.94163,83.19126
83.4,6.94998,83.47562
83.5,6.9585,83.72025
83.6,6.96696,83.87762
83.7,6.97527,83.88712
83.8,6.98336,83.93044
83.9,6.99155,83.91313
84,7.00012,84.12017
84.1,7.00859,84.11452
84.2,7.017,84.24807
84.3,7.0252,84.4463
84.4,7.03329,84.62814
84.5,7.0417,84.63656
84.6,7.05021,84.61192
84.7,7.05862,84.70443
84.8,7.06698,85.02304
84.9,7.07502,85.10307
85,7.08321,85.18695
85.1,7.09179,85.2831
85.2,7.10025,85.21838
85.3,7.10866,85.40867
85.4,7.11686,85.70244
85.5,7.12495,85.55784
85.6,7.13336,85.80016
85.7,7.14188,85.70703
85.8,7.15034,85.95282
85.9,7.15864,86.02342
86,7.16668,85.98742
86.1,7.17493,86.21616
86.2,7.1835,86.23752
86.3,7.19196,86.45673
86.4,7.20032,86.42883
86.5,7.20846,86.61912
86.6,7.21655,86.65292
86.7,7.22502,86.60305
86.8,7.23354,86.8251
86.9,7.24195,86.91589
87,7.25025,87.04855
87.1,7.25834,87.01437
87.2,7.26664,87.20673
87.3,7.27516,87.31908
87.4,7.28362,87.40086
87.5,7.29198,87.62012
87.6,7.30013,87.59755
87.7,7.30827,87.58851
87.8,7.31673,87.72935
87.9,7.32525,87.74276
88,7.33366,87.87244
88.1,7.34191,87.94706
88.2,7.34995,88.09756
88.3,7.3583,88.02013
88.4,7.36682,88.3259
88.5,7.37529,88.43018
88.6,7.38364,88.57227
88.7,7.39179,88.72482
88.8,7.39987,88.58467
88.9,7.40845,88.77201
89,7.41691,88.85093
89.1,7.42532,89.04697
89.2,7.43352,89.05489
89.3,7.44161,89.1363
89.4,7.44996,89.33305
89.5,7.45848,89.21995
89.6,7.46695,89.37691
89.7,7.47525,89.51666
89.8,7.48339,89.52439
89.9,7.49159,89.67583
90,7.50011,89.82584
90.1,7.50857,89.88986
90.2,7.51698,90.05369
90.3,7.52523,89.9463
90.4,7.53327,90.06652
90.5,7.54168,90.10075
90.6,7.55025,90.27917
90.7,7.55861,90.30253
90.8,7.56691,90.57307
90.9,7.57505,90.59935
91,7.58325,90.47758
91.1,7.59182,90.71049
91.2,7.60023,90.81161
91.3,7.60864,90.92709
91.4,7.61679,91.05496
91.5,7.62487,91.23108
91.6,7.63339,91.18969
91.7,7.64191,91.29852
91.8,7.65032,91.35793
91.9,7.65862,91.35324
92,7.66666,91.49201
92.1,7.67496,91.57987
92.2,7.68348,91.67941
92.3,7.69195,91.75497
92.4,7.7003,91.88474
92.5,7.70845,92.13982
92.6,7.71659,92.01121
92.7,7.72505,92.10913
92.8,7.73357,92.16861
92.9,7.74198,92.35354
93,7.75029,92.45552
93.1,7.75832,92.47563
93.2,7.76662,92.47064
93.3,7.7752,92.7013
93.4,7.78366,92.68152
93.5,7.79202,92.81176
93.6,7.80011,92.85796
